x [cm],tA = 10 TA [s],tB = 10 TB [s]
90,19.489,22.182
85,19.336,20.423
80,19.213,19.320
75,19.117,18.680
70,19.017,18.320
65,18.970,18.136
60,18.925,18.108
55,18.913,18.180
50,18.916,18.327
45,18.977,18.532
40,19.040,18.767
35,19.150,19.069
30,19.288,19.390
25,19.467,19.726
